 Copyright (C) 1995-2019 - All Rights Reserved
 University Corporation for Atmospheric Research
 NCAR Command Language Version 6.6.2
 The use of this software is governed by a License Agreement.
 See http://www.ncl.ucar.edu/ for more details.
Temperature (F), Actual Saturation Vapor Pressure (kPa)
33,0.635942
34,0.661994
35,0.688984
36,0.716943
37,0.745898
38,0.775881
39,0.806923
40,0.839055
41,0.872311
42,0.906723
43,0.942327
44,0.979157
45,1.01725
46,1.05664
47,1.09737
48,1.13947
49,1.18299
50,1.22796
51,1.27443
52,1.32244
53,1.37203
54,1.42325
55,1.47614
56,1.53074
57,1.58711
58,1.6453
59,1.70535
60,1.76731
61,1.83123
62,1.89717
63,1.96519
64,2.03533
65,2.10765
66,2.18221
67,2.25907
68,2.33828
69,2.41992
70,2.50403
71,2.59069
72,2.67996
73,2.7719
74,2.86658
75,2.96408
76,3.06445
77,3.16778
78,3.27413
79,3.38358
80,3.49621
81,3.61209
82,3.7313
83,3.85392
84,3.98003
85,4.10972
86,4.24307
87,4.38016
88,4.52109
89,4.66594
90,4.81481
91,4.96779
92,5.12497
93,5.28644
94,5.45231
95,5.62268
96,5.79765
97,5.97731
98,6.16178
99,6.35117
100,6.54557
101,6.7451
102,6.94987
103,7.16001
104,7.37562
105,7.59681
106,7.82372
107,8.05646
108,8.29516
109,8.53994
110,8.79093
111,9.04826
112,9.31207
113,9.58248
114,9.85964
115,10.1437
116,10.4347
117,10.733
118,11.0385
119,11.3515
120,11.6721
121,12.0005
122,12.3368
123,12.6811
124,13.0337
125,13.3947
126,13.7642
127,14.1424
128,14.5296
129,14.9258
130,15.3312
131,15.746
132,16.1704
133,16.6046
134,17.0487
135,17.503
136,17.9676
137,18.4427
138,18.9286
139,19.4253
140,19.9331
141,20.4523
142,20.9829
143,21.5253
144,22.0796
145,22.646
146,23.2248
147,23.8162
148,24.4204
149,25.0376
150,25.668
151,26.312
152,26.9696
153,27.6412
154,28.3269
155,29.0271
156,29.742
157,30.4718
158,31.2168
159,31.9771
160,32.7532
161,33.5452
162,34.3534
163,35.1781
164,36.0195
165,36.878
166,37.7537
167,38.647
168,39.5581
169,40.4874
170,41.4351
171,42.4016
172,43.387
173,44.3917
174,45.4161
175,46.4604
176,47.5249
177,48.6099
178,49.7158
179,50.8429
180,51.9915
181,53.1619
182,54.3545
183,55.5695
184,56.8074
185,58.0684
186,59.353
187,60.6614
188,61.994
189,63.3512
190,64.7332
191,66.1406
192,67.5736
193,69.0327
194,70.5181
195,72.0302
196,73.5695
197,75.1365
198,76.7313
199,78.3543
200,80.0061
201,81.687
202,83.3974
203,85.1377
204,86.9083
205,88.7097
206,90.5423
207,92.4064
208,94.3025
209,96.2311
210,98.1925
211,100.187
212,102.216
